,time,amplitude,pitch
0,0.8325,0.001361433280229676,
1,0.8574999999999999,0.01403217266213928,
2,0.8825000000000001,0.23203221046465938,
3,0.9075,0.21406002153071024,88.93684377139817
4,1.02,0.08276669039987437,91.85102141303582
5,1.06,0.10378264247243822,95.51807160268463
6,1.1,0.07179726190862656,94.46131791274574
7,1.14,0.11682352962838619,97.2323483124882
8,1.205,,
9,1.2149999999999999,,
10,1.225,,
11,1.2349999999999999,,
12,1.3725,0.09719256778577368,112.06392168486332
13,1.5175,0.23084217861850495,87.68231577853204
14,1.6624999999999999,0.06946859690824517,68.26354589318407
15,1.8074999999999999,0.13120045206824488,65.10327501923577
16,1.96,0.03883559983881793,
17,2.0,0.03336620191787204,
18,2.04,0.0602369430426636,72.2944799213438
19,2.08,0.053495018728816984,73.44627677829682
20,2.1275000000000004,0.190542890813985,69.41817939654744
21,2.1425,0.11595411824868218,68.98846385307822
22,2.1575,0.0745553231619953,68.20917236052611
23,2.1725000000000003,0.1287114511060045,
24,2.3525,0.14133748272453098,86.89226511013422
25,2.4974999999999996,0.050915843112941894,84.66113149716868
26,2.6425,0.04775330089553135,98.7351860751687
27,2.7874999999999996,0.06776451289664479,83.6436811077639
28,2.9725,0.16104203635625391,89.62535325433305
29,3.0774999999999997,0.10683729284739377,75.92698400595701
30,3.1825,0.09140490195476486,65.2447916231967
31,3.2874999999999996,0.03380449668473824,
32,3.395,0.028813742478271863,
33,3.425,0.0431243166677439,66.83979515828155
34,3.455,0.03661878886416496,
35,3.485,0.033724846904251725,
36,3.5975,0.17686247952978432,
37,3.6725,0.18414254150509837,76.33250509732316
38,3.7475,0.0778078635884659,70.75857907561804
39,3.8225,0.03323498082657859,
40,4.69,0.09727058346676892,
41,4.75,0.08525140572102893,
42,4.8100000000000005,0.07936831968095683,122.78177132703668
43,4.87,0.07347611984062272,115.04831920231868
44,5.0675,0.17767275938827087,97.45327102815526
45,5.2025,0.3076895890277872,69.25666881660013
46,5.3375,0.12128907817719888,
47,5.4725,0.22239620159685222,
48,5.57,0.06817883905648767,103.8147956164321
49,5.59,0.07470072124595203,77.79883605349316
50,5.609999999999999,0.058065165317103,76.88863137054821
51,5.629999999999999,0.047434693247952464,75.66625165541576
52,5.7675,0.047336962827164944,
53,5.9025,0.05220881065196235,96.07230311006478
54,6.0375000000000005,0.03652962905918484,121.30172910862478
55,6.1725,0.09969494913477618,93.97481938607406
56,6.3825,0.13670755159803064,83.8075448826723
57,6.467499999999999,0.11822046382391932,83.1866161557698
58,6.5525,0.04706994098747676,81.85827535514548
59,6.637499999999999,0.05540761727778143,89.54765444263438
60,6.710000000000001,0.10872611099762364,80.49754272043793
61,6.73,0.09654488466516696,77.74782911988683
62,6.75,0.033650828414525984,51.48556530592805
63,6.77,0.028276251130213145,
64,6.895,0.15853865659271923,
65,7.005000000000001,0.11590922784774631,89.48458322431966
66,7.115,0.06410046723575205,67.60836595591955
67,7.225,0.04225913490955394,
68,7.407500000000001,0.14270290372480443,
69,7.5025,0.17716816586124556,85.78365205324765
70,7.5975,0.05371952512604286,73.64727332661805
71,7.692500000000001,0.06675447085851634,67.88048405322367
72,7.7675,0.05453186132479676,
73,7.782500000000001,0.056118366176181836,
74,7.797499999999999,0.06394284243543841,70.14001181716958
75,7.8125,0.051485025916339716,
76,7.91,0.1091871852390615,
77,8.01,0.07527873503668615,
78,8.11,0.06660243401442163,
79,8.21,0.02464987832313619,
80,9.162500000000001,0.07724503419357001,79.28100394082693
81,9.2075,0.21890799480756712,76.67445541805934
82,9.252500000000001,0.23432399976163326,74.85912192227542
83,9.2975,0.13900725199303549,72.18459012457981
84,9.41,0.12994507823233736,70.16240199218697
85,9.47,0.08254921325301885,67.44006898299129
86,9.53,0.036551905602276655,69.48753082786
87,9.59,0.022231641673846395,76.23889518288321
88,9.962499999999999,0.12032108160959559,83.88407605656425
89,10.0075,0.2508226824131168,86.9201781210217
90,10.052499999999998,0.14004033975902477,85.12594934487687
91,10.0975,0.06321551365701009,84.83823464397855
92,10.1675,0.12105854388953072,83.3675400775397
93,10.182500000000001,0.10930692469787819,82.79214795349802
94,10.197500000000002,0.06435119199607982,78.81311766224256
95,10.2125,0.034692986322583566,
96,10.36,0.1878623926156874,83.39155895795881
97,10.48,0.10284367553664436,67.3795791536263
98,10.6,0.04683491052884606,66.33204673354196
99,10.719999999999999,0.022453923270751314,65.85463839506409
100,11.1725,0.07848900557104428,
101,11.2375,0.47807818430066074,79.4560739045805
102,11.3025,0.10941930770856255,84.13544166839121
103,11.3675,0.08893171390440709,
104,11.5075,0.12705994024355907,137.46651242119307
105,11.6025,0.1646154043139553,85.97902023741138
106,11.697500000000002,0.02241914989342536,
107,11.7925,0.03191675686410748,
108,12.3325,0.0012136775928322872,
109,12.357500000000002,0.0013816102708570786,
110,12.3825,0.06208888472494063,
111,12.407499999999999,0.12672975371798517,
112,12.5975,0.1275635066648431,
113,12.712499999999999,0.20226767719168876,91.57595939325886
114,12.8275,0.1074133898748195,93.433419671898
115,12.942499999999999,0.06836733602231503,88.3690271093596
116,13.11,0.10569942746060734,85.09934097610933
117,13.21,0.09182277585214936,71.75370652032457
118,13.310000000000002,0.06456906180429454,71.31845805959654
119,13.41,0.0665306106729246,
120,13.557500000000001,0.14942461725541006,69.88623118630552
121,13.6725,0.07513509634422748,67.13000135784444
122,13.787500000000001,0.037747960000716355,
123,13.9025,0.1088314555858151,
124,14.635,0.003950797300966983,
125,14.705,0.07670244592166252,67.98722160773448
126,14.775,0.07798637808865823,70.24145722236166
127,14.845,0.07027720913403325,
128,14.989999999999998,0.06579351154869184,94.481548139952
129,15.09,0.24650238590701362,73.59191580266965
130,15.190000000000001,0.10727141088275155,74.25079439589328
131,15.29,0.05459531263127841,70.90711854559471
132,15.39,0.04616056431781411,67.83917973940561
133,15.41,0.037432275660853234,65.28596941162037
134,15.430000000000001,0.034694565768091754,67.58725126645487
135,15.450000000000001,0.03420400871150357,
136,15.59,0.04631233357196946,65.77205460817962
137,15.689999999999998,0.05182247422379795,74.55884732773393
138,15.79,0.06514171652052198,72.87719706714104
139,15.89,0.06389828685417467,66.23210273426496
140,16.020000000000003,0.1058522745929765,75.44860682232643
141,16.1,0.07437863673012693,75.91674008189578
142,16.18,0.003905880629010585,
143,16.259999999999998,0.024991502550301765,
144,16.497500000000002,-0.00845717284351896,
145,16.5325,0.29217754923205536,
146,16.567500000000003,0.12697094395725736,
147,16.6025,0.03570468362320319,69.91255385448501
148,16.8025,0.21509986855394514,
149,16.9275,0.07197016505879686,90.25856594952663
150,17.0525,0.10933411021035155,82.10549153109822
151,17.1775,0.10803407399507808,82.07271918036234
152,17.3325,0.10185405865908251,
153,17.3575,0.1022299438257216,
154,17.3825,0.04526963008732048,
155,17.407500000000002,0.025895564259785727,
156,17.5175,0.03779984476298361,
157,17.5925,0.07623575861021376,92.82954636616378
158,17.667500000000004,0.061624914531718415,87.99119891679301
159,17.7425,0.0585773424649059,89.18416407802964
160,17.9025,0.052080137151754254,88.96848790153686
161,18.0275,0.14779750597486666,70.02246471731242
162,18.1525,0.06925984548065002,
163,18.2775,0.03275995093915563,
164,18.817500000000003,0.09031880369920978,
165,18.8925,0.14668690160773218,90.62859176004147
166,18.9675,0.13958268188111309,89.97807048920772
167,19.042499999999997,0.0857718802195591,96.91551679494934
168,19.18,0.10833279185594684,
169,19.22,0.16180876241462253,82.88875610125608
170,19.26,0.09361988664909804,71.04373072448696
171,19.3,0.06487210379086368,
172,19.3525,0.09922174878198818,66.34523268770916
173,19.3775,0.06364959712052982,
174,19.4025,0.006470952649808388,
175,19.427500000000002,0.09319511160029563,
176,19.560000000000002,0.1289996711259962,
177,19.68,0.09008274341201808,83.6131481237153
178,19.8,0.018459646985490588,
179,19.92,0.10593540267214392,67.5548068802157
180,20.097499999999997,0.07385412866466694,76.3558664078843
181,20.1725,0.21470276410639735,78.79849895711797
182,20.247500000000002,0.1778029643765419,79.75508399936186
183,20.322499999999998,0.10375871950523932,80.92632788515307
184,20.490000000000002,0.0479253117669217,
185,20.549999999999997,0.09669534114479103,64.2319103647063
186,20.61,0.0692255950046124,
187,20.67,0.06499759233111754,
188,20.799999999999997,0.06836939292084332,
189,20.919999999999998,0.18658193227797906,101.61078891654127
190,21.04,0.05427860641535106,86.08670169352042
191,21.159999999999997,0.04123918775101942,77.94352934250665
192,21.310000000000002,0.09922131918176465,82.53079022976196
193,21.369999999999997,0.162745718069076,76.32557067605777
194,21.43,0.08876775116333012,67.08624541758387
195,21.490000000000002,0.06043965737527457,
196,21.58,0.038228318068977585,
197,21.619999999999997,0.04686456346148642,
198,21.66,0.01718713555820851,
199,21.7,0.07459696426431402,
200,21.7825,0.06816492773107116,82.21031687856859
201,21.8275,0.15314789520384897,72.77045006689502
202,21.872500000000002,0.056978803747492146,67.84178940249441
203,21.917500000000004,0.024275955765760842,
204,22.03,0.10673917863009885,76.11676904050361
205,22.17,0.05631015724791684,67.43737598860663
206,22.310000000000002,0.08231545115725482,
207,22.45,0.02833896895185994,
208,23.41,0.13027551532067144,
209,23.51,0.14923215690871944,78.56118862778663
210,23.61,0.03148243888891362,71.61843590384372
211,23.71,0.04365130621543654,
212,23.7925,0.13510208305365137,69.0419422198462
213,23.8175,0.09549312325981678,67.4691714015629
214,23.8425,0.05415591681448626,68.01273058897944
215,23.8675,0.03517744946546496,69.65786994980715
216,23.919999999999998,0.06497263597692915,68.42446179141491
217,23.959999999999997,0.05702859020298234,68.10094775390037
218,24.0,0.053153337396485534,70.15956808353022
219,24.04,0.10765405577108172,
220,24.177500000000002,0.18097602443998165,71.6307464224921
221,24.2925,0.052605752908284224,73.06131119619462
222,24.4075,0.06233604156047388,69.22743478538256
223,24.5225,0.14191900468709454,
224,24.69,0.11830237464760998,82.79808532176413
225,24.79,0.10127710315354398,74.15502152096893
226,24.89,0.06692437387423855,70.75075091567604
227,24.99,0.13131316888686043,
228,25.5525,-3.255238801899322e-05,
229,25.5775,0.035254944114541616,
230,25.6025,0.36037034076255037,90.13842672153855
231,25.6275,0.5237843114166554,81.85679046454136
232,25.7625,0.1522823176173176,100.3768459208678
233,25.8475,0.3016097580110464,91.92298131609036
234,25.932499999999997,0.0746032869557105,93.79793578642926
235,26.0175,0.045086999007413364,94.33336826261115
236,26.095,0.1383999291137902,94.34345881422735
237,26.125,0.1351000149096829,92.0546408781576
238,26.155,0.0268441241489578,
239,26.185,0.023409368894262216,104.61783110855816
240,26.28,0.07534213436119166,81.77276620830477
241,26.36,0.09247347748161575,75.23871646473931
242,26.439999999999998,0.007425238188679019,
243,26.519999999999996,0.05020440526013235,
244,26.585,0.1102405376219238,
245,26.634999999999998,0.041958413672157316,
246,26.685000000000002,0.021237462029619958,
247,26.735,0.003962944732095647,
248,27.075,0.003139897737247021,
249,27.104999999999997,0.11527238120695144,84.30349307316348
250,27.134999999999998,0.07830337955466325,73.29413061019989
251,27.165,0.04000895361846453,66.94107533867509
252,27.2275,0.09831832163595594,
253,27.2425,0.13498545471954113,
254,27.2575,0.15890737459543522,
255,27.2725,0.14193757093167175,
256,27.4,0.02346842286812435,
257,27.479999999999997,0.20714297863239212,77.53368559988755
258,27.560000000000002,0.09108009464560655,
259,27.64,0.02501147295443318,
260,27.737499999999997,0.10243228194572801,
261,27.7725,0.1064731939834429,68.63161339943998
262,27.807499999999997,0.03266508258990765,
263,27.8425,0.029375275502711563,
264,27.985,0.07485790897809115,86.04481249592187
265,28.075000000000003,0.2519515167220312,69.8080029835443
266,28.165,0.18298323081704537,
267,28.255000000000003,0.035188736109732936,
268,29.0775,0.0077331595237251465,
269,29.112499999999997,0.14097319375668296,71.75719873539128
270,29.1475,0.2672575974310751,81.18858694756223
271,29.182499999999997,0.09278180144725899,84.66384001458029
272,29.25,0.173070592879054,86.13927639406288
273,29.27,0.15854395133167135,86.67625296419212
274,29.29,0.11103309535788822,83.53857147574682
275,29.310000000000002,0.047744908765200926,89.20943640136504
276,29.3675,0.08112302630746063,85.39963655958074
277,29.3825,0.10016740056786463,85.04202621213297
278,29.3975,0.10690586263209967,79.29348970124214
279,29.4125,0.0772357455700029,
280,29.54,0.08104227144182861,115.05588648066319
281,29.66,0.10657836274246636,83.04632009544561
282,29.78,0.1403587002358607,
283,29.9,0.07124664075243191,78.71346954463134
284,30.0675,0.07587639376299081,82.55088111444445
285,30.1225,0.08571717311656865,86.4528183138143
286,30.177500000000002,0.07686990929088176,91.46132822097904
287,30.2325,0.045834869997382115,101.86446089013923
288,30.3625,0.06779385709897975,87.41873577040899
289,30.4475,0.11423413180278869,86.25767697790663
290,30.5325,0.07250871528570355,88.44084974852771
291,30.6175,0.07995111006503569,
292,30.7325,0.03387058877682225,102.60982000208462
293,30.8375,0.0766273378440814,75.64008184628707
294,30.942500000000003,0.13011760430024616,67.0933847423342
295,31.0475,0.07276670883287763,
296,32.3825,0.07378569512675064,82.4165010581728
297,32.4275,0.33898798658945317,95.39156399492727
298,32.4725,0.4322913683800753,116.96162660321427
299,32.5175,0.29257641512165533,129.029478598256
300,32.7275,0.1852867004075973,117.10102320514223
301,32.822500000000005,0.14533976767464804,112.50522389818528
302,32.917500000000004,0.0938519959526385,111.679360536801
303,33.0125,0.061876429375232016,102.44688017046825
304,33.105,0.10225384932594558,86.44778043041053
305,33.155,0.1116522331816598,83.37013712071465
306,33.205,0.09516407747115499,81.43083553624554
307,33.255,0.19617415683614525,
308,33.4675,0.21712870117219735,100.91357543791138
309,33.5625,0.14248299733296949,109.15186070408299
310,33.6575,0.1261487911772005,114.52774808990935
311,33.7525,0.09424814391198817,106.63081249279821
312,33.89,0.1578789756582794,74.56520716779508
313,34.03,0.06374692228965172,69.58712601904226
314,34.17,0.0818687513561665,
315,34.31,0.23062005537666852,
316,34.834999999999994,0.04246202335297966,
317,34.905,0.04942818433246537,
318,34.974999999999994,0.14045096883231833,103.90383797002316
319,35.045,0.05345124346511426,105.63919536827858
320,35.11,0.0852400584849565,107.09333438991828
321,35.13,0.08313119061560406,103.17858296908975
322,35.15,0.04413355526578631,107.82951214527051
323,35.17,0.026641415437649862,
324,35.317499999999995,0.12049923040109482,84.59683438326093
325,35.4325,0.0734591300283341,68.87436948663245
326,35.5475,0.026958328150255714,
327,35.662499999999994,0.14719042576411354,
328,36.6025,0.17788548478577706,88.49795304635583
329,36.6475,0.18373701538185727,88.20245520446434
330,36.692499999999995,0.042246827715017504,
331,36.7375,0.07118624992123372,
332,36.837500000000006,0.16257673798232694,98.93937343682774
333,36.8725,0.1293877169695036,101.21244572331328
334,36.9075,0.06959498905145427,98.21642935460632
335,36.942499999999995,0.0545733145551582,100.12361779613441
336,37.035000000000004,0.08878673882806662,95.4990401712779
337,37.065,0.1396532159517489,95.56272128243387
338,37.095,0.08433005560738965,95.3788517252637
339,37.125,0.06834179172092235,96.45338718944413
340,37.25,0.07573257851145279,95.40976071169294
341,37.31,0.14658640690646116,81.59352781163913
342,37.370000000000005,0.1456207400432338,73.46931894730764
343,37.43,0.03207875376375504,
344,37.515,0.16242338860911526,
345,37.545,0.0737759585073208,
346,37.575,0.044754930205419735,90.74557809852216
347,37.605,0.08262371707113256,76.23155948825733
348,37.74250000000001,0.07120066735761889,69.90197430092459
349,37.8275,0.08334494206067608,72.85252803332835
350,37.9125,0.048183145304399794,74.57647040593697
351,37.9975,0.05281282419244565,75.60884715453116
352,38.1525,0.08308903863902939,73.10854442201426
353,38.177499999999995,0.05533916453404045,73.87068682414932
354,38.2025,0.044377758549408466,75.81978596378201
355,38.227500000000006,0.04161559956413982,74.92728492550646
356,38.3775,0.15186013744341426,76.86448288761306
357,38.5325,0.1139873115508122,84.4936853760204
358,38.6875,0.15837044085668728,69.4167415045017
359,38.8425,0.07047150151511587,
360,40.662499999999994,0.14426153190782356,87.38375637888437
361,40.7475,0.09352511868668553,77.04585129313988
362,40.832499999999996,0.08482855815154447,64.48427398363923
363,40.917500000000004,0.047724588478963006,69.00123292988896
364,41.0775,0.06786250735926659,64.30903944165863
365,41.1925,0.12655995949878548,77.3403474092608
366,41.3075,0.19040937165218208,65.65377587067975
367,41.4225,0.11656529153470098,
368,41.58500000000001,0.05776410731132045,66.8294448827511
369,41.715,0.06833942422296017,66.8560346776742
370,41.845,0.03165026028187889,
371,41.974999999999994,0.06079001525278659,
372,43.0525,0.06801772593808847,77.71893770010966
373,43.11750000000001,0.3715114067396511,81.19676342680637
374,43.182500000000005,0.14832456547681783,82.74834786976089
375,43.2475,0.08041006212898223,83.58411744882528
376,43.285,,
377,43.295,,
378,43.305,0.15977630847565366,79.31177377660251
379,43.315,,
380,43.4075,0.10467474127407057,80.48978401044232
381,43.5025,0.06148879401106629,
382,43.5975,0.21447210064275096,90.91794950713684
383,43.6925,0.295671867525399,89.04815562878628
384,43.7875,0.13796643401445077,80.1919087004493
385,43.8025,0.10700058994072535,79.4114416896991
386,43.8175,0.05725146623259804,76.33471394488035
387,43.8325,0.04468400157692341,78.5511927206638
388,43.917500000000004,0.3368281188577844,78.8700431519279
389,43.9525,0.3549410854516977,79.90657102193153
390,43.9875,0.2681038400033874,57.238424420218166
391,44.022499999999994,0.03971778356970391,
392,44.17,0.03661979868425209,77.66062161484868
393,44.31,0.08253819995987542,72.99221246571297
394,44.449999999999996,0.12494576410390727,79.05902341435626
395,44.589999999999996,0.0641647238058638,78.13520659811694
396,44.7675,0.19587241570041847,76.12162877925644
397,44.8625,0.13246068012080692,77.38172998724757
398,44.957499999999996,0.018267667718236985,
399,45.0525,0.035861785088147115,
400,45.647499999999994,0.2393716312504958,80.65459918112441
401,45.7825,0.10136571761440487,81.04107384226957
402,45.9175,0.09560041394700014,82.8577595690184
403,46.052499999999995,0.13434059054524122,
404,46.1725,0.06578524732166084,87.786906657651
405,46.19749999999999,0.057122625233110985,85.85818951270159
406,46.2225,0.041106487605927666,85.16436717076984
407,46.2475,0.04179322949066863,83.6237739731822
408,46.36,0.19303318687724064,
409,46.44,0.21441782029692555,
410,46.52,0.2091690205769454,
411,46.6,0.08694103915298014,
412,47.0125,0.08785166166403678,
413,47.037499999999994,0.09313584613778596,
414,47.0625,0.12809690667154572,
415,47.087500000000006,0.1397108489967271,
416,47.182500000000005,0.1357773139180407,69.43506759331996
417,47.2675,0.1472948939750142,72.86809847788562
418,47.3525,0.06904615307546474,77.07836334101202
419,47.4375,0.06229917032210346,76.12928568573417
420,47.51,0.1129233065502866,66.8093254104684
421,47.53,0.062051265174338816,65.08899234085963
422,47.55,0.03870505666538918,67.03788277011478
423,47.57,0.038244621321244954,66.54691246190716
424,47.69499999999999,0.1393641389553302,71.6023859806311
425,47.765,0.15186887164130244,73.04094008039503
426,47.834999999999994,0.06964044587081138,77.29153722813737
427,47.905,0.08495031906636766,76.70837323733211
428,48.09,0.1626972729824851,75.40311080846185
429,48.230000000000004,0.11081178630546207,70.09648075531798
430,48.37,0.03009478927617074,
431,48.51,0.11984761926556978,
432,48.737500000000004,0.0650334324252799,
433,48.8125,0.132783265700795,82.92031951641795
434,48.8875,0.02400904799829859,
